time,velocity 
0,0
0.2,0.3008
0.4,0.494868
0.6,0.686368
0.8,0.874824
1,1.06029
1.2,1.24282
1.4,1.42247
1.6,1.59928
1.8,1.7733
2,1.94458
2.2,2.11318
2.4,2.27913
2.6,2.44249
2.8,2.60329
3,2.76159
3.2,2.91742
3.4,3.07083
3.6,3.22187
3.8,3.37056
4,3.51696
4.2,3.6611
4.4,3.80302
4.6,3.94277
4.8,4.08037
5,4.21587
5.2,4.3493
5.4,4.48069
5.6,4.61009
5.8,4.73753
6,4.86304
6.2,4.98665
6.4,5.1084
6.6,5.22833
6.8,5.34645
7,5.46281
7.2,5.57742
7.4,5.69034
7.6,5.80157
7.8,5.91116
8,6.01913
8.2,6.1255
8.4,6.23031
8.6,6.33358
8.8,6.43534
9,6.53562
9.2,6.63444
9.4,6.73182
9.6,6.82779
9.8,6.92238
10,7.01561
10.2,7.10749
10.4,7.19806
10.6,7.28734
10.8,7.37535
11,7.46211
11.2,7.54764
11.4,7.63197
11.6,7.71511
11.8,7.79708
12,7.87791
12.2,7.95762
12.4,8.03621
12.6,8.11372
12.8,8.19016
13,8.26555
13.2,8.3399
13.4,8.41324
13.6,8.48558
13.8,8.55694
14,8.62734
14.2,8.69679
14.4,8.7653
14.6,8.8329
14.8,8.8996
15,8.96541
15.2,9.03035
15.4,9.09444
15.6,9.15768
15.8,9.2201
16,9.28171
16.2,9.34251
16.4,9.40253
16.6,9.46178
16.8,9.52027
17,9.57801
17.2,9.63502
17.4,9.6913
17.6,9.74688
17.8,9.80176
18,9.85595
18.2,9.90946
18.4,9.96232
18.6,10.0145
18.8,10.0661
19,10.117
19.2,10.1673
19.4,10.217
19.6,10.2661
19.8,10.3146
20,10.3626
20.2,10.4099
20.4,10.4567
20.6,10.503
20.8,10.5487
21,10.5938
21.2,10.6385
21.4,10.6826
21.6,10.7262
21.8,10.7694
22,10.812
22.2,10.8542
22.4,10.8958
22.6,10.937
22.8,10.9778
23,11.0181
23.2,11.0579
23.4,11.0974
23.6,11.1364
23.8,11.1749
24,11.2131
24.2,11.2508
24.4,11.2881
24.6,11.3251
24.8,11.3616
25,11.3978
25.2,11.4336
25.4,11.469
25.6,11.5041
25.8,11.5387
26,11.5731
26.2,11.6071
26.4,11.6407
26.6,11.674
26.8,11.707
27,11.7397
27.2,11.772
27.4,11.804
27.6,11.8357
27.8,11.8671
28,11.8982
28.2,11.929
28.4,11.9595
28.6,11.9898
28.8,12.0197
29,12.0494
29.2,12.0788
29.4,12.1079
29.6,12.1367
29.8,12.1653
30,12.1937
30.2,12.2218
30.4,12.2496
30.6,12.2772
30.8,12.3045
31,12.3316
31.2,12.3585
31.4,12.3851
31.6,12.4116
31.8,12.4378
32,12.4637
32.2,12.4895
32.4,12.515
32.6,12.5404
32.8,12.5655
33,12.5904
33.2,12.6151
33.4,12.6396
33.6,12.664
33.8,12.6881
34,12.7121
34.2,12.7358
34.4,12.7594
34.6,12.7828
34.8,12.806
35,12.829
35.2,12.8519
35.4,12.8746
35.6,12.8971
35.8,12.9195
36,12.9417
36.2,12.9637
36.4,12.9856
36.6,13.0073
36.8,13.0289
37,13.0503
37.2,13.0716
37.4,13.0927
37.6,13.1137
37.8,13.1345
38,13.1552
38.2,13.1758
38.4,13.1962
38.6,13.2165
38.8,13.2366
39,13.2566
39.2,13.2765
39.4,13.2963
39.6,13.3159
39.8,13.3354
40,13.3548
40.2,13.374
40.4,13.3932
40.6,13.4122
40.8,13.4311
41,13.4499
41.2,13.4686
41.4,13.4871
41.6,13.5056
41.8,13.5239
42,13.5422
42.2,13.5603
42.4,13.5784
42.6,13.5963
42.8,13.6141
43,13.6318
43.2,13.6495
43.4,13.667
43.6,13.6844
43.8,13.7017
44,13.719
44.2,13.7361
44.4,13.7532
44.6,13.7702
44.8,13.787
45,13.8038
45.2,13.8205
45.4,13.8371
45.6,13.8537
45.8,13.8701
46,13.8865
46.2,13.9027
46.4,13.9189
46.6,13.935
46.8,13.9511
47,13.967
47.2,13.9829
47.4,13.9987
47.6,14.0145
47.8,14.0301
48,14.0457
48.2,14.0612
48.4,14.0766
48.6,14.092
48.8,14.1073
49,14.1225
49.2,14.1377
49.4,14.1528
49.6,14.1678
49.8,14.1827
50,14.1976
50.2,14.2124
50.4,14.2272
50.6,14.2419
50.8,14.2565
51,14.2711
51.2,14.2856
51.4,14.3
51.6,14.3144
51.8,14.3287
52,14.343
52.2,14.3572
52.4,14.3713
52.6,14.3854
52.8,14.3995
53,14.4134
53.2,14.4274
53.4,14.4412
53.6,14.455
53.8,14.4688
54,14.4825
54.2,14.4961
54.4,14.5097
54.6,14.5233
54.8,14.5368
55,14.5502
55.2,14.5636
55.4,14.5769
55.6,14.5902
55.8,14.6035
56,14.6167
56.2,14.6298
56.4,14.6429
56.6,14.656
56.8,14.669
57,14.6819
57.2,14.6948
57.4,14.7077
57.6,14.7205
57.8,14.7333
58,14.746
58.2,14.7587
58.4,14.7714
58.6,14.784
58.8,14.7965
59,14.809
59.2,14.8215
59.4,14.8339
59.6,14.8463
59.8,14.8586
60,14.871
60.2,14.8832
60.4,14.8954
60.6,14.9076
60.8,14.9198
61,14.9319
61.2,14.9439
61.4,14.956
61.6,14.9679
61.8,14.9799
62,14.9918
62.2,15.0037
62.4,15.0155
62.6,15.0273
62.8,15.0391
63,15.0508
63.2,15.0625
63.4,15.0741
63.6,15.0858
63.8,15.0973
64,15.1089
64.2,15.1204
64.4,15.1319
64.6,15.1433
64.8,15.1547
65,15.1661
65.2,15.1774
65.4,15.1887
65.6,15.2
65.8,15.2112
66,15.2224
66.2,15.2336
66.4,15.2448
66.6,15.2559
66.8,15.2669
67,15.278
67.2,15.289
67.4,15.3
67.6,15.3109
67.8,15.3218
68,15.3327
68.2,15.3436
68.4,15.3544
68.6,15.3652
68.8,15.376
69,15.3867
69.2,15.3974
69.4,15.4081
69.6,15.4187
69.8,15.4293
70,15.4399
70.2,15.4505
70.4,15.461
70.6,15.4715
70.8,15.482
71,15.4924
71.2,15.5028
71.4,15.5132
71.6,15.5236
71.8,15.5339
72,15.5442
72.2,15.5545
72.4,15.5647
72.6,15.5749
72.8,15.5851
73,15.5953
73.2,15.6054
73.4,15.6155
73.6,15.6256
73.8,15.6357
74,15.6457
74.2,15.6557
74.4,15.6657
74.6,15.6756
74.8,15.6856
75,15.6955
75.2,15.7053
75.4,15.7152
75.6,15.725
75.8,15.7348
76,15.7446
76.2,15.7543
76.4,15.764
76.6,15.7737
76.8,15.7834
77,15.7931
77.2,15.8027
77.4,15.8123
77.6,15.8219
77.8,15.8314
78,15.8409
78.2,15.8504
78.4,15.8599
78.6,15.8694
78.8,15.8788
79,15.8882
79.2,15.8976
79.4,15.907
79.6,15.9163
79.8,15.9256
80,15.9349
80.2,15.9442
80.4,15.9534
80.6,15.9626
80.8,15.9718
81,15.981
81.2,15.9902
81.4,15.9993
81.6,16.0084
81.8,16.0175
82,16.0265
82.2,16.0356
82.4,16.0446
82.6,16.0536
82.8,16.0626
83,16.0715
83.2,16.0805
83.4,16.0894
83.6,16.0983
83.8,16.1071
84,16.116
84.2,16.1248
84.4,16.1336
84.6,16.1424
84.8,16.1511
85,16.1599
85.2,16.1686
85.4,16.1773
85.6,16.186
85.8,16.1946
86,16.2033
86.2,16.2119
86.4,16.2205
86.6,16.229
86.8,16.2376
87,16.2461
87.2,16.2546
87.4,16.2631
87.6,16.2716
87.8,16.28
88,16.2885
88.2,16.2969
88.4,16.3053
88.6,16.3136
88.8,16.322
89,16.3303
89.2,16.3386
89.4,16.3469
89.6,16.3552
89.8,16.3634
90,16.3717
90.2,16.3799
90.4,16.3881
90.6,16.3963
90.8,16.4044
91,16.4125
91.2,16.4207
91.4,16.4288
91.6,16.4368
91.8,16.4449
92,16.4529
92.2,16.461
92.4,16.469
92.6,16.477
92.8,16.4849
93,16.4929
93.2,16.5008
93.4,16.5087
93.6,16.5166
93.8,16.5245
94,16.5323
94.2,16.5402
94.4,16.548
94.6,16.5558
94.8,16.5636
95,16.5713
95.2,16.5791
95.4,16.5868
95.6,16.5945
95.8,16.6022
96,16.6099
96.2,16.6175
96.4,16.6252
96.6,16.6328
96.8,16.6404
97,16.648
97.2,16.6555
97.4,16.6631
97.6,16.6706
97.8,16.6781
98,16.6856
98.2,16.6931
98.4,16.7006
98.6,16.708
98.8,16.7155
99,16.7229
99.2,16.7303
99.4,16.7377
99.6,16.745
99.8,16.7524
100,16.7597
100.2,16.767
100.4,16.7743
100.6,16.7816
100.8,16.7888
101,16.7961
101.2,16.8033
101.4,16.8105
101.6,16.8177
101.8,16.8249
102,16.832
102.2,16.8392
102.4,16.8463
102.6,16.8534
102.8,16.8605
103,16.8676
103.2,16.8747
103.4,16.8817
103.6,16.8887
103.8,16.8958
104,16.9028
104.2,16.9097
104.4,16.9167
104.6,16.9237
104.8,16.9306
105,16.9375
105.2,16.9444
105.4,16.9513
105.6,16.9582
105.8,16.965
106,16.9719
106.2,16.9787
106.4,16.9855
106.6,16.9923
106.8,16.9991
107,17.0058
107.2,17.0126
107.4,17.0193
107.6,17.026
107.8,17.0327
108,17.0394
108.2,17.0461
108.4,17.0527
108.6,17.0594
108.8,17.066
109,17.0726
109.2,17.0792
109.4,17.0858
109.6,17.0924
109.8,17.0989
110,17.1054
110.2,17.112
110.4,17.1185
110.6,17.125
110.8,17.1314
111,17.1379
111.2,17.1444
111.4,17.1508
111.6,17.1572
111.8,17.1636
112,17.17
112.2,17.1764
112.4,17.1827
112.6,17.1891
112.8,17.1954
113,17.2017
113.2,17.208
113.4,17.2143
113.6,17.2206
113.8,17.2268
114,17.2331
114.2,17.2393
114.4,17.2455
114.6,17.2517
114.8,17.2579
115,17.2641
115.2,17.2703
115.4,17.2764
115.6,17.2825
115.8,17.2887
116,17.2948
116.2,17.3009
116.4,17.3069
116.6,17.313
116.8,17.319
117,17.3251
117.2,17.3311
117.4,17.3371
117.6,17.3431
117.8,17.3491
118,17.3551
118.2,17.361
118.4,17.367
118.6,17.3729
118.8,17.3788
119,17.3847
119.2,17.3906
119.4,17.3965
119.6,17.4023
119.8,17.4082
120,17.414
120.2,17.4198
120.4,17.4256
120.6,17.4314
120.8,17.4372
121,17.443
121.2,17.4487
121.4,17.4545
121.6,17.4602
121.8,17.4659
122,17.4716
122.2,17.4773
122.4,17.483
122.6,17.4887
122.8,17.4943
123,17.5
123.2,17.5056
123.4,17.5112
123.6,17.5168
123.8,17.5224
124,17.528
124.2,17.5335
124.4,17.5391
124.6,17.5446
124.8,17.5502
125,17.5557
125.2,17.5612
125.4,17.5667
125.6,17.5721
125.8,17.5776
126,17.5831
126.2,17.5885
126.4,17.5939
126.6,17.5993
126.8,17.6047
127,17.6101
127.2,17.6155
127.4,17.6209
127.6,17.6262
127.8,17.6316
128,17.6369
128.2,17.6422
128.4,17.6475
128.6,17.6528
128.8,17.6581
129,17.6634
129.2,17.6686
129.4,17.6739
129.6,17.6791
129.8,17.6843
130,17.6895
130.2,17.6947
130.4,17.6999
130.6,17.7051
130.8,17.7103
131,17.7154
131.2,17.7206
131.4,17.7257
131.6,17.7308
131.8,17.7359
132,17.741
132.2,17.7461
132.4,17.7512
132.6,17.7562
132.8,17.7613
133,17.7663
133.2,17.7714
133.4,17.7764
133.6,17.7814
133.8,17.7864
134,17.7913
134.2,17.7963
134.4,17.8013
134.6,17.8062
134.8,17.8112
135,17.8161
135.2,17.821
135.4,17.8259
135.6,17.8308
135.8,17.8357
136,17.8405
136.2,17.8454
136.4,17.8503
136.6,17.8551
136.8,17.8599
137,17.8647
137.2,17.8695
137.4,17.8743
137.6,17.8791
137.8,17.8839
138,17.8886
138.2,17.8934
138.4,17.8981
138.6,17.9029
138.8,17.9076
139,17.9123
139.2,17.917
139.4,17.9217
139.6,17.9264
139.8,17.931
140,17.9357
140.2,17.9403
140.4,17.945
140.6,17.9496
140.8,17.9542
141,17.9588
141.2,17.9634
141.4,17.968
141.6,17.9725
141.8,17.9771
142,17.9817
142.2,17.9862
142.4,17.9907
142.6,17.9953
142.8,17.9998
143,18.0043
143.2,18.0088
143.4,18.0132
143.6,18.0177
143.8,18.0222
144,18.0266
144.2,18.0311
144.4,18.0355
144.6,18.0399
144.8,18.0443
145,18.0487
145.2,18.0531
145.4,18.0575
145.6,18.0619
145.8,18.0662
146,18.0706
146.2,18.0749
146.4,18.0792
146.6,18.0836
146.8,18.0879
147,18.0922
147.2,18.0965
147.4,18.1008
147.6,18.105
147.8,18.1093
148,18.1135
148.2,18.1178
148.4,18.122
148.6,18.1263
148.8,18.1305
149,18.1347
149.2,18.1389
149.4,18.1431
149.6,18.1472
149.8,18.1514
150,18.1556
150.2,18.1597
150.4,18.1639
150.6,18.168
150.8,18.1721
151,18.1762
151.2,18.1803
151.4,18.1844
151.6,18.1885
151.8,18.1926
152,18.1966
152.2,18.2007
152.4,18.2048
152.6,18.2088
152.8,18.2128
153,18.2168
153.2,18.2209
153.4,18.2249
153.6,18.2289
153.8,18.2328
154,18.2368
154.2,18.2408
154.4,18.2447
154.6,18.2487
154.8,18.2526
155,18.2566
155.2,18.2605
155.4,18.2644
155.6,18.2683
155.8,18.2722
156,18.2761
156.2,18.28
156.4,18.2838
156.6,18.2877
156.8,18.2915
157,18.2954
157.2,18.2992
157.4,18.3031
157.6,18.3069
157.8,18.3107
158,18.3145
158.2,18.3183
158.4,18.3221
158.6,18.3258
158.8,18.3296
159,18.3334
159.2,18.3371
159.4,18.3409
159.6,18.3446
159.8,18.3483
160,18.352
160.2,18.3557
160.4,18.3594
160.6,18.3631
160.8,18.3668
161,18.3705
161.2,18.3741
161.4,18.3778
161.6,18.3815
161.8,18.3851
162,18.3887
162.2,18.3924
162.4,18.396
162.6,18.3996
162.8,18.4032
163,18.4068
163.2,18.4104
163.4,18.4139
163.6,18.4175
163.8,18.4211
164,18.4246
164.2,18.4282
164.4,18.4317
164.6,18.4352
164.8,18.4387
165,18.4423
165.2,18.4458
165.4,18.4493
165.6,18.4528
165.8,18.4562
166,18.4597
166.2,18.4632
166.4,18.4666
166.6,18.4701
166.8,18.4735
167,18.477
167.2,18.4804
167.4,18.4838
167.6,18.4872
167.8,18.4906
168,18.494
168.2,18.4974
168.4,18.5008
168.6,18.5042
168.8,18.5075
169,18.5109
169.2,18.5142
169.4,18.5176
169.6,18.5209
169.8,18.5242
170,18.5276
170.2,18.5309
170.4,18.5342
170.6,18.5375
170.8,18.5408
171,18.544
171.2,18.5473
171.4,18.5506
171.6,18.5538
171.8,18.5571
172,18.5603
172.2,18.5636
172.4,18.5668
172.6,18.57
172.8,18.5733
173,18.5765
173.2,18.5797
173.4,18.5829
173.6,18.5861
173.8,18.5892
174,18.5924
174.2,18.5956
174.4,18.5987
174.6,18.6019
174.8,18.605
175,18.6082
175.2,18.6113
175.4,18.6144
175.6,18.6175
175.8,18.6207
176,18.6238
176.2,18.6269
176.4,18.6299
176.6,18.633
176.8,18.6361
177,18.6392
177.2,18.6422
177.4,18.6453
177.6,18.6483
177.8,18.6514
178,18.6544
178.2,18.6574
178.4,18.6605
178.6,18.6635
178.8,18.6665
179,18.6695
179.2,18.6725
179.4,18.6755
179.6,18.6784
179.8,18.6814
180,18.6844
180.2,18.6873
180.4,18.6903
180.6,18.6932
180.8,18.6962
181,18.6991
181.2,18.702
181.4,18.705
181.6,18.7079
181.8,18.7108
182,18.7137
182.2,18.7166
182.4,18.7195
182.6,18.7223
182.8,18.7252
183,18.7281
183.2,18.731
183.4,18.7338
183.6,18.7367
183.8,18.7395
184,18.7423
184.2,18.7452
184.4,18.748
184.6,18.7508
184.8,18.7536
185,18.7564
185.2,18.7592
185.4,18.762
185.6,18.7648
185.8,18.7676
186,18.7703
186.2,18.7731
186.4,18.7759
186.6,18.7786
186.8,18.7814
187,18.7841
187.2,18.7869
187.4,18.7896
187.6,18.7923
187.8,18.795
188,18.7977
188.2,18.8004
188.4,18.8031
188.6,18.8058
188.8,18.8085
189,18.8112
189.2,18.8139
189.4,18.8165
189.6,18.8192
189.8,18.8219
190,18.8245
190.2,18.8272
190.4,18.8298
190.6,18.8324
190.8,18.8351
191,18.8377
191.2,18.8403
191.4,18.8429
191.6,18.8455
191.8,18.8481
192,18.8507
192.2,18.8533
192.4,18.8559
192.6,18.8584
192.8,18.861
193,18.8636
193.2,18.8661
193.4,18.8687
193.6,18.8712
193.8,18.8738
194,18.8763
194.2,18.8788
194.4,18.8813
194.6,18.8839
194.8,18.8864
195,18.8889
195.2,18.8914
195.4,18.8939
195.6,18.8964
195.8,18.8988
196,18.9013
196.2,18.9038
196.4,18.9063
196.6,18.9087
196.8,18.9112
197,18.9136
197.2,18.9161
197.4,18.9185
197.6,18.9209
197.8,18.9234
198,18.9258
198.2,18.9282
198.4,18.9306
198.6,18.933
198.8,18.9354
199,18.9378
199.2,18.9402
199.4,18.9426
199.6,18.945
199.8,18.9473
200,18.9497
200.2,18.9521
200.4,18.9544
200.6,18.9568
200.8,18.9591
201,18.9615
201.2,18.9638
201.4,18.9661
201.6,18.9685
201.8,18.9708
202,18.9731
202.2,18.9754
202.4,18.9777
202.6,18.98
202.8,18.9823
203,18.9846
203.2,18.9869
203.4,18.9892
203.6,18.9914
203.8,18.9937
204,18.996
204.2,18.9982
204.4,19.0005
204.6,19.0027
204.8,19.005
205,19.0072
205.2,19.0095
205.4,19.0117
205.6,19.0139
205.8,19.0161
206,19.0183
206.2,19.0205
206.4,19.0227
206.6,19.0249
206.8,19.0271
207,19.0293
207.2,19.0315
207.4,19.0337
207.6,19.0359
207.8,19.038
208,19.0402
208.2,19.0424
208.4,19.0445
208.6,19.0467
208.8,19.0488
209,19.0509
209.2,19.0531
209.4,19.0552
209.6,19.0573
209.8,19.0595
210,19.0616
210.2,19.0637
210.4,19.0658
210.6,19.0679
210.8,19.07
211,19.0721
211.2,19.0742
211.4,19.0763
211.6,19.0783
211.8,19.0804
212,19.0825
212.2,19.0845
212.4,19.0866
212.6,19.0887
212.8,19.0907
213,19.0928
213.2,19.0948
213.4,19.0968
213.6,19.0989
213.8,19.1009
214,19.1029
214.2,19.1049
214.4,19.1069
214.6,19.109
214.8,19.111
215,19.113
215.2,19.115
215.4,19.1169
215.6,19.1189
215.8,19.1209
216,19.1229
216.2,19.1249
216.4,19.1268
216.6,19.1288
216.8,19.1308
217,19.1327
217.2,19.1347
217.4,19.1366
217.6,19.1386
217.8,19.1405
218,19.1424
218.2,19.1444
218.4,19.1463
218.6,19.1482
218.8,19.1501
219,19.152
219.2,19.1539
219.4,19.1558
219.6,19.1577
219.8,19.1596
220,19.1615
220.2,19.1634
220.4,19.1653
220.6,19.1672
220.8,19.169
221,19.1709
221.2,19.1728
221.4,19.1746
221.6,19.1765
221.8,19.1784
222,19.1802
222.2,19.182
222.4,19.1839
222.6,19.1857
222.8,19.1876
223,19.1894
223.2,19.1912
223.4,19.193
223.6,19.1948
223.8,19.1967
224,19.1985
224.2,19.2003
224.4,19.2021
224.6,19.2039
224.8,19.2057
225,19.2074
225.2,19.2092
225.4,19.211
225.6,19.2128
225.8,19.2145
226,19.2163
226.2,19.2181
226.4,19.2198
226.6,19.2216
226.8,19.2233
227,19.2251
227.2,19.2268
227.4,19.2286
227.6,19.2303
227.8,19.232
228,19.2338
228.2,19.2355
228.4,19.2372
228.6,19.2389
228.8,19.2406
229,19.2423
229.2,19.2441
229.4,19.2458
229.6,19.2475
229.8,19.2491
230,19.2508
230.2,19.2525
230.4,19.2542
230.6,19.2559
230.8,19.2576
231,19.2592
231.2,19.2609
231.4,19.2626
231.6,19.2642
231.8,19.2659
232,19.2675
232.2,19.2692
232.4,19.2708
232.6,19.2725
232.8,19.2741
233,19.2757
233.2,19.2774
233.4,19.279
233.6,19.2806
233.8,19.2822
234,19.2838
234.2,19.2854
234.4,19.2871
234.6,19.2887
234.8,19.2903
235,19.2919
235.2,19.2934
235.4,19.295
235.6,19.2966
235.8,19.2982
236,19.2998
236.2,19.3014
236.4,19.3029
236.6,19.3045
236.8,19.3061
237,19.3076
237.2,19.3092
237.4,19.3107
237.6,19.3123
237.8,19.3138
238,19.3154
238.2,19.3169
238.4,19.3185
238.6,19.32
238.8,19.3215
239,19.323
239.2,19.3246
239.4,19.3261
239.6,19.3276
239.8,19.3291
240,19.3306
240.2,19.3321
240.4,19.3336
240.6,19.3351
240.8,19.3366
241,19.3381
241.2,19.3396
241.4,19.3411
241.6,19.3426
241.8,19.3441
242,19.3455
242.2,19.347
242.4,19.3485
242.6,19.3499
242.8,19.3514
243,19.3529
243.2,19.3543
243.4,19.3558
243.6,19.3572
243.8,19.3587
244,19.3601
244.2,19.3616
244.4,19.363
244.6,19.3644
244.8,19.3659
245,19.3673
245.2,19.3687
245.4,19.3701
245.6,19.3715
245.8,19.373
246,19.3744
246.2,19.3758
246.4,19.3772
246.6,19.3786
246.8,19.38
247,19.3814
247.2,19.3828
247.4,19.3842
247.6,19.3855
247.8,19.3869
248,19.3883
248.2,19.3897
248.4,19.391
248.6,19.3924
248.8,19.3938
249,19.3951
249.2,19.3965
249.4,19.3979
249.6,19.3992
249.8,19.4006
250,19.4019
250.2,19.4033
250.4,19.4046
250.6,19.406
250.8,19.4073
251,19.4086
251.2,19.41
251.4,19.4113
251.6,19.4126
251.8,19.4139
252,19.4152
252.2,19.4166
252.4,19.4179
252.6,19.4192
252.8,19.4205
253,19.4218
253.2,19.4231
253.4,19.4244
253.6,19.4257
253.8,19.427
254,19.4283
254.2,19.4296
254.4,19.4308
254.6,19.4321
254.8,19.4334
255,19.4347
255.2,19.4359
255.4,19.4372
255.6,19.4385
255.8,19.4397
256,19.441
256.2,19.4423
256.4,19.4435
256.6,19.4448
256.8,19.446
257,19.4473
257.2,19.4485
257.4,19.4497
257.6,19.451
257.8,19.4522
258,19.4535
258.2,19.4547
258.4,19.4559
258.6,19.4571
258.8,19.4584
259,19.4596
259.2,19.4608
259.4,19.462
259.6,19.4632
259.8,19.4644
260,19.4656
260.2,19.4668
260.4,19.468
260.6,19.4692
260.8,19.4704
261,19.4716
261.2,19.4728
261.4,19.474
261.6,19.4752
261.8,19.4763
262,19.4775
262.2,19.4787
262.4,19.4799
262.6,19.481
262.8,19.4822
263,19.4834
263.2,19.4845
263.4,19.4857
263.6,19.4869
263.8,19.488
264,19.4892
264.2,19.4903
264.4,19.4915
264.6,19.4926
264.8,19.4937
265,19.4949
265.2,19.496
265.4,19.4972
265.6,19.4983
265.8,19.4994
266,19.5005
266.2,19.5017
266.4,19.5028
266.6,19.5039
266.8,19.505
267,19.5061
267.2,19.5072
267.4,19.5084
267.6,19.5095
267.8,19.5106
268,19.5117
268.2,19.5128
268.4,19.5139
268.6,19.515
268.8,19.516
269,19.5171
269.2,19.5182
269.4,19.5193
269.6,19.5204
269.8,19.5215
270,19.5225
270.2,19.5236
270.4,19.5247
270.6,19.5258
270.8,19.5268
271,19.5279
271.2,19.5289
271.4,19.53
271.6,19.5311
271.8,19.5321
272,19.5332
272.2,19.5342
272.4,19.5353
272.6,19.5363
272.8,19.5374
273,19.5384
273.2,19.5394
273.4,19.5405
273.6,19.5415
273.8,19.5425
274,19.5436
274.2,19.5446
274.4,19.5456
274.6,19.5466
274.8,19.5477
275,19.5487
275.2,19.5497
275.4,19.5507
275.6,19.5517
275.8,19.5527
276,19.5537
276.2,19.5547
276.4,19.5557
276.6,19.5567
276.8,19.5577
277,19.5587
277.2,19.5597
277.4,19.5607
277.6,19.5617
277.8,19.5627
278,19.5637
278.2,19.5647
278.4,19.5656
278.6,19.5666
278.8,19.5676
279,19.5686
279.2,19.5695
279.4,19.5705
279.6,19.5715
279.8,19.5724
280,19.5734
280.2,19.5744
280.4,19.5753
280.6,19.5763
280.8,19.5772
281,19.5782
281.2,19.5791
281.4,19.5801
281.6,19.581
281.8,19.582
282,19.5829
282.2,19.5838
282.4,19.5848
282.6,19.5857
282.8,19.5866
283,19.5876
283.2,19.5885
283.4,19.5894
283.6,19.5903
283.8,19.5913
284,19.5922
284.2,19.5931
284.4,19.594
284.6,19.5949
284.8,19.5958
285,19.5968
285.2,19.5977
285.4,19.5986
285.6,19.5995
285.8,19.6004
286,19.6013
286.2,19.6022
286.4,19.6031
286.6,19.604
286.8,19.6048
287,19.6057
287.2,19.6066
287.4,19.6075
287.6,19.6084
287.8,19.6093
288,19.6101
288.2,19.611
288.4,19.6119
288.6,19.6128
288.8,19.6136
289,19.6145
289.2,19.6154
289.4,19.6162
289.6,19.6171
289.8,19.618
290,19.6188
290.2,19.6197
290.4,19.6205
290.6,19.6214
290.8,19.6223
291,19.6231
291.2,19.6239
291.4,19.6248
291.6,19.6256
291.8,19.6265
292,19.6273
292.2,19.6282
292.4,19.629
292.6,19.6298
292.8,19.6307
293,19.6315
293.2,19.6323
293.4,19.6332
293.6,19.634
293.8,19.6348
294,19.6356
294.2,19.6364
294.4,19.6373
294.6,19.6381
294.8,19.6389
295,19.6397
295.2,19.6405
295.4,19.6413
295.6,19.6421
295.8,19.6429
296,19.6437
296.2,19.6445
296.4,19.6453
296.6,19.6461
296.8,19.6469
297,19.6477
297.2,19.6485
297.4,19.6493
297.6,19.6501
297.8,19.6509
298,19.6517
298.2,19.6525
298.4,19.6532
298.6,19.654
298.8,19.6548
299,19.6556
299.2,19.6563
299.4,19.6571
299.6,19.6579
299.8,19.6587
300,19.6594
300.2,19.6602
300.4,19.661
300.6,19.6617
300.8,19.6625
301,19.6632
301.2,19.664
301.4,19.6648
301.6,19.6655
301.8,19.6663
302,19.667
302.2,19.6678
302.4,19.6685
302.6,19.6693
302.8,19.67
303,19.6707
303.2,19.6715
303.4,19.6722
303.6,19.673
303.8,19.6737
304,19.6744
304.2,19.6752
304.4,19.6759
